tick,wall_ms,particles,kinetic,potential,total_energy,avg_vel,max_vel,substeps
0,0,80,0,-0.6210527050832638,-0.6210527050832638,0,0,0
1,89,81,0.000000,-0.638077,-0.638077,0.000029,0.000090,5
2,146,82,0.000001,-0.665060,-0.665059,0.000073,0.000708,5
3,202,83,0.000002,-0.680231,-0.680229,0.000116,0.001399,5
4,265,84,0.000005,-0.692125,-0.692120,0.000158,0.002081,5
5,326,85,0.000008,-0.707827,-0.707819,0.000198,0.002754,5
6,387,86,0.000013,-0.726468,-0.726455,0.000248,0.003421,5
7,456,87,0.000019,-0.742231,-0.742212,0.000295,0.004085,5
8,525,88,0.000027,-0.764406,-0.764379,0.000360,0.004746,5
9,595,89,0.000039,-0.787546,-0.787508,0.000441,0.005407,5
10,664,90,0.000057,-0.811367,-0.811311,0.000537,0.006070,5
11,736,91,0.000084,-0.839651,-0.839568,0.000655,0.006737,5
12,811,92,0.000126,-0.870484,-0.870358,0.000790,0.007749,5
13,886,93,0.000186,-0.902786,-0.902601,0.000947,0.008798,5
14,963,94,0.000266,-0.934595,-0.934329,0.001122,0.009875,5
15,1040,95,0.000378,-0.972438,-0.972059,0.001327,0.011370,5
16,1118,96,0.000528,-1.009254,-1.008726,0.001563,0.012916,5
17,1198,97,0.000736,-1.052532,-1.051796,0.001853,0.014509,5
18,1280,98,0.001004,-1.078345,-1.077342,0.002153,0.016150,5
19,1363,99,0.001333,-1.109738,-1.108405,0.002465,0.017844,5
20,1449,100,0.001752,-1.148867,-1.147116,0.002807,0.019598,5
21,1536,101,0.002267,-1.184209,-1.181941,0.003177,0.021420,5
22,1625,102,0.002909,-1.224600,-1.221691,0.003598,0.023837,5
23,1715,103,0.003741,-1.271100,-1.267359,0.004083,0.027443,5
24,1809,104,0.004784,-1.321165,-1.316381,0.004614,0.031197,5
25,1904,105,0.006094,-1.378045,-1.371951,0.005211,0.035128,5
26,2000,106,0.007733,-1.432833,-1.425100,0.005881,0.039274,5
27,2098,107,0.009817,-1.505239,-1.495422,0.006646,0.043676,5
28,2198,108,0.012419,-1.555656,-1.543237,0.007480,0.048377,5
29,2299,109,0.015737,-1.622104,-1.606367,0.008422,0.054023,5
30,2404,110,0.019877,-1.677112,-1.657234,0.009463,0.060086,5
31,2509,111,0.025164,-1.756243,-1.731079,0.010650,0.067219,5
32,2611,112,0.031861,-1.840042,-1.808180,0.011985,0.074905,5
33,2714,113,0.040185,-1.903274,-1.863089,0.013436,0.083195,5
34,2820,114,0.050648,-1.975477,-1.924830,0.015058,0.092115,5
35,2929,115,0.063541,-2.042343,-1.978802,0.016830,0.100000,5
36,3064,116,0.077120,-2.152563,-2.075443,0.018635,0.100000,5
37,3219,117,0.089338,-2.234053,-2.144714,0.020264,0.100000,5
38,3374,118,0.102513,-2.331440,-2.228927,0.021929,0.100000,5
39,3533,119,0.117505,-2.445220,-2.327715,0.023692,0.100000,5
40,3697,120,0.132259,-2.568879,-2.436620,0.025374,0.100000,5
41,3867,121,0.141527,-2.667981,-2.526454,0.026495,0.100000,5
42,4036,122,0.146733,-2.759293,-2.612561,0.027233,0.100000,5
43,4207,123,0.151681,-2.862413,-2.710732,0.027920,0.100000,5
44,4383,124,0.154224,-2.975161,-2.820936,0.028372,0.100000,5
45,4563,125,0.156454,-3.104858,-2.948405,0.028812,0.100000,5
46,4743,126,0.159833,-3.239315,-3.079482,0.029351,0.100000,5
47,4926,127,0.159995,-3.384995,-3.225000,0.029687,0.100000,5
48,5111,128,0.162156,-3.492024,-3.329868,0.030132,0.100000,5
49,5298,129,0.165944,-3.637659,-3.471715,0.030700,0.100000,5
50,5490,130,0.171465,-3.777513,-3.606048,0.031362,0.100000,5
51,5690,131,0.176054,-3.906313,-3.730259,0.031907,0.100000,5
52,5883,132,0.179266,-4.015363,-3.836097,0.032282,0.100000,5
53,6084,133,0.183538,-4.138512,-3.954974,0.032758,0.100000,5
54,6288,134,0.194758,-4.274229,-4.079471,0.033864,0.100000,5
55,6494,135,0.209121,-4.435912,-4.226792,0.035259,0.100000,5
56,6704,136,0.219517,-4.567769,-4.348252,0.036236,0.100000,5
57,6917,137,0.224029,-4.728581,-4.504552,0.036677,0.100000,5
58,7135,138,0.226233,-4.891680,-4.665447,0.036887,0.100000,5
59,7352,139,0.224750,-5.035206,-4.810456,0.036888,0.100000,5
60,7571,140,0.224520,-5.147469,-4.922949,0.036976,0.100000,5
61,7792,141,0.229703,-5.269008,-5.039305,0.037510,0.100000,5
62,8006,142,0.239817,-5.392286,-5.152469,0.038413,0.100000,5
63,8235,143,0.245419,-5.525909,-5.280490,0.038881,0.100000,5
64,8466,144,0.244330,-5.661644,-5.417313,0.038764,0.100000,5
65,8699,145,0.238642,-5.829327,-5.590685,0.038419,0.100000,5
66,8935,146,0.235108,-5.963094,-5.727986,0.038217,0.100000,5
67,9177,147,0.243365,-6.139863,-5.896498,0.038977,0.100000,5
68,9420,148,0.255467,-6.290593,-6.035125,0.040091,0.100000,5
69,9668,149,0.268059,-6.455344,-6.187285,0.041023,0.100000,5
70,9913,150,0.268732,-6.603248,-6.334516,0.041171,0.100000,5
71,10167,151,0.272620,-6.758598,-6.485978,0.041474,0.100000,5
72,10421,152,0.280367,-6.948036,-6.667670,0.042099,0.100000,5
73,10681,153,0.286398,-7.112135,-6.825737,0.042644,0.100000,5
74,10942,154,0.285648,-7.302914,-7.017266,0.042574,0.100000,5
75,11209,155,0.281122,-7.485567,-7.204446,0.042269,0.100000,5
76,11482,156,0.282106,-7.663602,-7.381496,0.042256,0.100000,5
77,11756,157,0.290640,-7.859301,-7.568661,0.042956,0.100000,5
78,12033,158,0.297375,-8.051270,-7.753895,0.043521,0.100000,5
79,12315,159,0.304848,-8.231975,-7.927128,0.044102,0.100000,5
80,12602,160,0.311979,-8.422084,-8.110106,0.044614,0.100000,5
81,12893,161,0.317637,-8.594313,-8.276676,0.044977,0.100000,5
82,13184,162,0.318585,-8.784300,-8.465715,0.045078,0.100000,5
83,13486,163,0.321367,-8.991818,-8.670451,0.045333,0.100000,5
84,13787,164,0.323548,-9.187615,-8.864067,0.045615,0.100000,5
85,14089,165,0.324971,-9.420180,-9.095209,0.045735,0.100000,5
86,14397,166,0.328933,-9.617360,-9.288427,0.045983,0.100000,5
87,14708,167,0.338281,-9.820149,-9.481867,0.046658,0.100000,5
88,15019,168,0.352405,-10.026299,-9.673894,0.047677,0.100000,5
89,15337,169,0.360565,-10.217934,-9.857370,0.048171,0.100000,5
90,15659,170,0.358341,-10.434518,-10.076177,0.048067,0.100000,5
91,15984,171,0.351650,-10.653260,-10.301610,0.047569,0.100000,5
92,16314,172,0.357129,-10.907020,-10.549891,0.047990,0.100000,5
93,16647,173,0.372239,-11.128332,-10.756093,0.049071,0.100000,5
94,16984,174,0.382606,-11.358965,-10.976359,0.049788,0.100000,5
95,17328,175,0.377383,-11.589958,-11.212575,0.049398,0.100000,5
96,17672,176,0.379930,-11.848878,-11.468948,0.049590,0.100000,5
97,18022,177,0.393316,-12.052344,-11.659028,0.050510,0.100000,5
98,18380,178,0.403520,-12.281448,-11.877928,0.051141,0.100000,5
99,18738,179,0.399129,-12.516146,-12.117017,0.050865,0.100000,5
100,19093,180,0.399067,-12.828730,-12.429662,0.050771,0.100000,5